"Time (s)","Magnetic Field x (µT)","Magnetic Field y (µT)","Magnetic Field z (µT)","Absolute field (µT)"
4.217037500E-2,3.429050446E1,-1.327502441E1,-3.488233185E1,5.068374536E1
5.222637497E-2,3.420653534E1,-1.276975250E1,-3.502456665E1,5.059519649E1
6.228237494E-2,3.411046600E1,-1.232135773E1,-3.515568542E1,5.051001846E1
7.233837491E-2,3.382743073E1,-1.114436722E1,-3.564384460E1,5.038824911E1
8.239437500E-2,3.346868134E1,-1.042057800E1,-3.610160065E1,5.031964473E1
9.245037497E-2,3.285280609E1,-9.806377411E0,-3.708321381E1,5.050382809E1
1.025063749E-1,3.198738861E1,-9.323326111E0,-3.763437653E1,5.026394072E1
1.125623749E-1,3.091637421E1,-8.951782227E0,-3.862288666E1,5.027607754E1
1.226183750E-1,2.967693329E1,-8.444561005E0,-3.960113525E1,5.020239928E1
1.326743750E-1,2.851895905E1,-7.748252869E0,-4.055863953E1,5.018336067E1
1.427303749E-1,2.732205963E1,-7.109245300E0,-4.152671814E1,5.021458584E1
1.527863749E-1,2.626207733E1,-6.421672821E0,-4.225875854E1,5.016709341E1
1.628423750E-1,2.524623871E1,-5.387329102E0,-4.298161316E1,5.013795921E1
1.728985833E-1,2.406555939E1,-4.360023499E0,-4.353976440E1,4.993868278E1
1.829545833E-1,2.287815094E1,-3.351970673E0,-4.435456085E1,5.001972177E1
1.930105833E-1,2.170394135E1,-2.373332977E0,-4.502511597E1,5.003953284E1
2.030665833E-1,2.027642059E1,-1.419487000E0,-4.573958588E1,5.005255130E1
2.131225833E-1,1.864522552E1,-3.246078491E-1,-4.647540283E1,5.007706934E1
2.231785833E-1,1.738542938E1,6.609916687E-1,-4.710823822E1,5.021828525E1
2.332345833E-1,1.596793365E1,1.905265808E0,-4.745785522E1,5.010841212E1
2.432905833E-1,1.480010223E1,3.379901886E0,-4.777542877E1,5.012941609E1
2.533465833E-1,1.398520660E1,4.837675095E0,-4.760523987E1,4.985226140E1
2.634025833E-1,1.344757843E1,6.327808380E0,-4.780305481E1,5.006006965E1
2.734595833E-1,1.305333710E1,7.891466141E0,-4.764092255E1,5.002321809E1
2.835155833E-1,1.286969757E1,9.182357788E0,-4.750272369E1,5.006449409E1
2.935715833E-1,1.291352081E1,1.018645477E1,-4.718544769E1,4.996988448E1
3.036275833E-1,1.271758270E1,1.071505547E1,-4.720720673E1,5.005067123E1
3.136835833E-1,1.240753937E1,1.088768196E1,-4.714756012E1,4.995378941E1
3.237395833E-1,1.203913116E1,1.082257843E1,-4.713517761E1,4.983767502E1
3.337955833E-1,1.140628815E1,1.038921928E1,-4.740807343E1,4.985543814E1
3.438515833E-1,1.097008514E1,9.367843628E0,-4.786254883E1,4.998922727E1
3.539075833E-1,1.042191315E1,8.198020935E0,-4.821758270E1,5.000759045E1
3.639635833E-1,1.012621307E1,6.738164902E0,-4.843830109E1,4.994208716E1
3.740195833E-1,9.734214783E0,5.489622116E0,-4.875717163E1,5.002152211E1
3.840755833E-1,9.642555237E0,4.059967041E0,-4.888708496E1,4.999409245E1
3.941315833E-1,9.380271912E0,2.936950684E0,-4.912191772E1,5.009568825E1
4.041875832E-1,8.994026184E0,1.974792480E0,-4.909498596E1,4.995107565E1
4.142435833E-1,8.509559631E0,1.299343109E0,-4.935102844E1,5.009615660E1
4.242995833E-1,8.104370117E0,6.058845520E-1,-4.935894012E1,5.002352328E1
4.343555833E-1,7.631843567E0,1.100654602E-1,-4.950234222E1,5.008731413E1
4.444115832E-1,7.282882690E0,-3.110771179E-1,-4.943395233E1,4.996851801E1
4.544675833E-1,7.241897583E0,-4.323997498E-1,-4.953079987E1,5.005928671E1
4.645235833E-1,7.318214417E0,-6.678924561E-1,-4.943528748E1,4.997849528E1
4.745795833E-1,7.489036560E0,-7.849655151E-1,-4.938096619E1,4.995179337E1
4.846355832E-1,7.612205505E0,-7.935180664E-1,-4.945166016E1,5.004040403E1
4.946915833E-1,7.650779724E0,-5.927276611E-1,-4.944419861E1,5.003613227E1
5.047475833E-1,7.754981995E0,-3.721160889E-1,-4.946807861E1,5.007363596E1
5.148035833E-1,7.839057922E0,-2.984542847E-1,-4.948896790E1,5.010686427E1
5.248595832E-1,7.968650818E0,-1.120681763E-1,-4.937933350E1,5.001830197E1
5.349155833E-1,8.134391785E0,-1.896095276E-1,-4.942448425E1,5.008975869E1
5.449715833E-1,8.367317200E0,-2.217330933E-1,-4.915419769E1,4.986177207E1
5.550275833E-1,8.356117249E0,-1.216697693E-1,-4.934403992E1,5.004671592E1
5.650835832E-1,8.522590637E0,-1.018905640E-2,-4.920838165E1,4.994095994E1
5.751395833E-1,8.565208435E0,1.282997131E-1,-4.934671783E1,5.008470642E1
5.851955833E-1,8.674995422E0,5.304107666E-1,-4.916641998E1,4.992868649E1
5.952515833E-1,8.801429749E0,9.565391541E-1,-4.934323883E1,5.013118142E1
6.053075832E-1,8.914405823E0,1.304248810E0,-4.909654999E1,4.991631914E1
6.153635833E-1,8.791542053E0,1.884170532E0,-4.916043854E1,4.997589446E1
6.254195833E-1,8.698020935E0,2.386764526E0,-4.903117371E1,4.985386854E1
6.354755833E-1,8.481300354E0,3.024597168E0,-4.903757477E1,4.985744060E1
6.455315833E-1,8.246047974E0,3.559076309E0,-4.922366333E1,5.003632044E1
6.555875833E-1,7.804237366E0,3.924951553E0,-4.920275116E1,4.997221315E1
6.656435833E-1,7.518302917E0,4.236497879E0,-4.911402893E1,4.986642789E1
6.756995833E-1,7.274909973E0,4.351823807E0,-4.910918427E1,4.983547597E1
6.857555833E-1,7.179153442E0,4.475347519E0,-4.924354553E1,4.996494527E1
6.958115833E-1,7.298423767E0,4.420578003E0,-4.918657684E1,4.992121634E1
7.058685833E-1,7.588798523E0,4.291824341E0,-4.908744812E1,4.985566349E1
7.159245833E-1,7.874076843E0,4.405504227E0,-4.916054535E1,4.998168437E1
7.259805833E-1,8.322311401E0,4.578357697E0,-4.916829681E1,5.007737651E1
7.360365833E-1,8.746559143E0,4.712501526E0,-4.874234772E1,4.974461205E1
7.460925833E-1,9.100486755E0,4.932790756E0,-4.897472382E1,5.005671640E1
7.561485833E-1,9.205558777E0,5.269271851E0,-4.891023254E1,5.004716162E1
7.662045833E-1,9.103660583E0,5.640447617E0,-4.878283691E1,4.994453386E1
7.762605833E-1,8.810417175E0,5.960184097E0,-4.888892365E1,5.003273029E1
7.863165833E-1,8.594596863E0,6.301836014E0,-4.871045685E1,4.986269987E1
7.963725833E-1,8.347335815E0,6.795095444E0,-4.893699646E1,5.010669576E1
8.064285833E-1,8.107376099E0,7.270776749E0,-4.891322327E1,5.011084865E1
8.164845833E-1,7.951400757E0,7.571483612E0,-4.922336578E1,5.043304350E1
8.265405833E-1,7.957672119E0,7.766019821E0,-4.887559509E1,5.012443920E1
8.365965832E-1,7.957672119E0,7.766019821E0,-4.887559509E1,5.012443920E1
8.466525833E-1,7.841201782E0,7.886468887E0,-4.895991516E1,5.020711234E1
8.567085833E-1,7.649917603E0,8.100929260E0,-4.870974731E1,4.996784744E1
8.667645833E-1,7.534843445E0,8.290315628E0,-4.893530273E1,5.020126545E1
8.768205832E-1,7.029129028E0,8.372970581E0,-4.876361084E1,4.997404360E1
8.868765833E-1,6.405570984E0,8.539733887E0,-4.878446960E1,4.993879123E1
8.969325833E-1,5.516685486E0,8.415750504E0,-4.891150665E1,4.993590050E1
9.069885833E-1,4.505393982E0,8.267515182E0,-4.920993042E1,5.010257113E1
9.170445832E-1,3.437820435E0,8.204061508E0,-4.905009460E1,4.985014559E1
9.271005833E-1,1.911758423E0,8.185577393E0,-4.923351288E1,4.994594366E1
9.371565833E-1,4.575119019E-1,7.995006561E0,-4.926999664E1,4.991655052E1
9.472125833E-1,-9.939422607E-1,7.862915039E0,-4.939532471E1,5.002710722E1
9.572685832E-1,-2.233215332E0,7.395416260E0,-4.945394897E1,5.005369618E1
9.673245833E-1,-3.459312439E0,6.958875656E0,-4.933949280E1,4.994775613E1
9.773805833E-1,-4.641548157E0,6.277795792E0,-4.938825989E1,5.000154902E1
9.874365833E-1,-5.783668518E0,5.281999588E0,-4.918621826E1,4.980596759E1
9.974925832E-1,-7.087684631E0,3.964601517E0,-4.923596954E1,4.990124283E1
1.007548583E0,-7.996505737E0,2.678443909E0,-4.916210938E1,4.988016804E1
1.017604583E0,-9.044883728E0,1.344993591E0,-4.921086884E1,5.005325705E1
1.027660583E0,-9.927864075E0,1.157379150E-1,-4.919378662E1,5.018570038E1
1.037716583E0,-1.066889954E1,-8.529815674E-1,-4.876757812E1,4.992824522E1
1.047772583E0,-1.115980530E1,-1.886585236E0,-4.852561188E1,4.982805903E1
1.057828583E0,-1.146688843E1,-2.878551483E0,-4.863991547E1,5.005613814E1
1.067884583E0,-1.177432251E1,-3.840690613E0,-4.844314575E1,5.000123944E1
1.077940583E0,-1.202082062E1,-4.849464417E0,-4.850739288E1,5.020940746E1
1.087996583E0,-1.251948547E1,-6.030284882E0,-4.826477051E1,5.022539123E1
1.098052583E0,-1.289495850E1,-7.406192780E0,-4.819436646E1,5.043638175E1
1.108108583E0,-1.329953003E1,-8.852394104E0,-4.779332733E1,5.039290146E1
1.118164583E0,-1.359954071E1,-1.008760834E1,-4.754046631E1,5.046586258E1
1.128220583E0,-1.349209595E1,-1.122111893E1,-4.725665283E1,5.040973517E1
1.138276583E0,-1.363039398E1,-1.216696548E1,-4.689225769E1,5.032600243E1
1.148332583E0,-1.366921234E1,-1.275492096E1,-4.679469299E1,5.039125586E1
1.158388583E0,-1.357869720E1,-1.332487106E1,-4.655287933E1,5.029019567E1
1.168444583E0,-1.343597412E1,-1.372674561E1,-4.635665131E1,5.017856181E1
1.178500958E0,-1.328089905E1,-1.417227173E1,-4.627130890E1,5.018236336E1
1.188556958E0,-1.312851715E1,-1.457227707E1,-4.599697113E1,5.000430556E1
1.198612958E0,-1.286718750E1,-1.503670120E1,-4.624015808E1,5.029730725E1
1.208669958E0,-1.278976440E1,-1.530165100E1,-4.622522736E1,5.034372097E1
1.218725958E0,-1.265530396E1,-1.595739746E1,-4.593728638E1,5.024967196E1
1.228781958E0,-1.254495239E1,-1.671879959E1,-4.580327606E1,5.034713684E1
1.238837958E0,-1.257357788E1,-1.766743851E1,-4.539381409E1,5.030737124E1
1.248893958E0,-1.253379822E1,-1.871072006E1,-4.472203827E1,5.007242604E1
1.258949958E0,-1.262718964E1,-2.005570221E1,-4.412995148E1,5.009121407E1
1.269005958E0,-1.255175781E1,-2.143061066E1,-4.359925842E1,5.017681768E1
1.279061958E0,-1.228922272E1,-2.321498871E1,-4.306451416E1,5.044316679E1
1.289117958E0,-1.192105103E1,-2.464771652E1,-4.217527008E1,5.028294734E1
1.299173958E0,-1.147641754E1,-2.642521286E1,-4.124768066E1,5.031273392E1
1.309229958E0,-1.094534302E1,-2.817585754E1,-4.041007996E1,5.046438392E1
1.319285958E0,-1.024810028E1,-3.020095062E1,-3.956491852E1,5.081834074E1
1.329341958E0,-9.321510315E0,-3.190155029E1,-3.782963562E1,5.035554385E1
1.339397958E0,-8.525932312E0,-3.393371582E1,-3.665916443E1,5.067625606E1
1.349453958E0,-7.430389404E0,-3.582610321E1,-3.497846985E1,5.061831399E1
1.359509958E0,-6.098373413E0,-3.774729919E1,-3.320549011E1,5.064240642E1
1.369565958E0,-4.516815186E0,-3.958232880E1,-3.127037048E1,5.064581367E1
1.379621958E0,-2.680480957E0,-4.123836517E1,-2.941483307E1,5.072494598E1
1.389677958E0,-6.302108765E-1,-4.279795837E1,-2.726065063E1,5.074648244E1
1.399733958E0,1.645751953E0,-4.412443542E1,-2.521906281E1,5.084953716E1
1.409789958E0,3.825790405E0,-4.521754456E1,-2.304607391E1,5.089582037E1
1.419845958E0,6.069252014E0,-4.617719269E1,-2.076306152E1,5.099287860E1
1.429901958E0,8.186531067E0,-4.678810120E1,-1.835814667E1,5.092315047E1
1.439957958E0,1.015528107E1,-4.727375031E1,-1.595378113E1,5.091620895E1
1.450013958E0,1.247661591E1,-4.762023926E1,-1.350084686E1,5.104533277E1
1.460069958E0,1.480136871E1,-4.764450836E1,-1.113538361E1,5.111825956E1
1.470125958E0,1.708632660E1,-4.735571289E1,-8.599792480E0,5.107310966E1
1.480181958E0,1.959545135E1,-4.687196350E1,-6.036567688E0,5.116055928E1
1.490237958E0,2.199729156E1,-4.619581604E1,-3.899574280E0,5.131413972E1
1.500293958E0,2.430084991E1,-4.523828888E1,-1.787933350E0,5.138317617E1
1.510349958E0,2.639937592E1,-4.390361023E1,1.775283813E-1,5.122973313E1
1.520405958E0,2.846163177E1,-4.272148132E1,2.290725708E0,5.138518146E1
1.530461958E0,3.036618805E1,-4.116259003E1,4.604835510E0,5.135823891E1
1.540517958E0,3.206873322E1,-3.942012787E1,6.584503174E0,5.124164140E1
1.550573958E0,3.386066437E1,-3.770318604E1,8.341133118E0,5.135805030E1
1.560629958E0,3.544358063E1,-3.585837555E1,9.981437683E0,5.139746689E1
1.570685958E0,3.679822540E1,-3.397566986E1,1.144670868E1,5.137589585E1
1.580741958E0,3.808266449E1,-3.205290985E1,1.322322845E1,5.150273911E1
1.590797958E0,3.914900970E1,-2.995954132E1,1.458252716E1,5.140884336E1
1.600853958E0,4.018024445E1,-2.792092133E1,1.577303314E1,5.140835016E1
1.610909958E0,4.111505890E1,-2.582871246E1,1.667920685E1,5.133971559E1
1.620965958E0,4.183072662E1,-2.370368958E1,1.772583771E1,5.124334017E1
1.631021958E0,4.275345612E1,-2.161936951E1,1.879824066E1,5.146483265E1
1.641077958E0,4.332076263E1,-1.940975571E1,1.962844086E1,5.136830523E1
1.651133958E0,4.377748871E1,-1.732910538E1,2.048001862E1,5.134391467E1
1.661189958E0,4.408368683E1,-1.513868713E1,2.118564606E1,5.119944230E1
1.671245958E0,4.432059479E1,-1.323084641E1,2.182779694E1,5.114511842E1
1.681301958E0,4.460158539E1,-1.143801880E1,2.238884735E1,5.119951346E1
1.691357958E0,4.455142975E1,-9.555328369E0,2.331920624E1,5.118514992E1
1.701413958E0,4.443137360E1,-7.686717987E0,2.410758209E1,5.113128306E1
1.711469958E0,4.433525848E1,-5.786193848E0,2.461283112E1,5.103809009E1
1.721525958E0,4.429706573E1,-3.790424347E0,2.504070282E1,5.102581844E1
1.731581958E0,4.415207672E1,-1.771377563E0,2.538426971E1,5.095983523E1
1.741637958E0,4.391616058E1,1.273078918E-1,2.587406158E1,5.097168263E1
1.751693958E0,4.378987885E1,2.146369934E0,2.613579559E1,5.104155370E1
1.761749958E0,4.342226410E1,3.864028931E0,2.659928131E1,5.106804779E1
1.771805958E0,4.307674408E1,5.549533844E0,2.655614471E1,5.090807430E1
1.781861958E0,4.271781158E1,7.066843033E0,2.678836823E1,5.091530584E1
1.791917958E0,4.233232880E1,8.565132141E0,2.732950592E1,5.111056098E1
1.801973958E0,4.158501434E1,9.921068192E0,2.772881317E1,5.095712013E1
1.812029958E0,4.090532684E1,1.136474037E1,2.823282623E1,5.098524850E1
1.822085958E0,4.018299103E1,1.282181168E1,2.858762360E1,5.095413472E1
1.832141958E0,3.951569366E1,1.440403748E1,2.903752899E1,5.110914235E1
1.842197958E0,3.848724365E1,1.582796860E1,2.906774902E1,5.076146715E1
1.852253958E0,3.767216492E1,1.739351273E1,2.921534729E1,5.074704732E1
1.862309958E0,3.674540710E1,1.855094528E1,2.949757385E1,5.064059021E1
1.872365958E0,3.594324493E1,1.979817963E1,3.002082825E1,5.084422191E1
1.882421958E0,3.493201447E1,2.076095963E1,3.034704590E1,5.071692295E1
1.892477958E0,3.401773834E1,2.168663788E1,3.089207458E1,5.081178069E1
1.902533958E0,3.291452789E1,2.262219620E1,3.101686096E1,5.056852352E1
1.912589958E0,3.195107269E1,2.360263443E1,3.166525269E1,5.080003569E1
1.922645958E0,3.076514435E1,2.461563492E1,3.195860291E1,5.073239487E1
1.932701958E0,2.963729095E1,2.578247833E1,3.243988037E1,5.094556941E1
1.942757958E0,2.827243805E1,2.680972672E1,3.256202698E1,5.077772938E1
1.952813958E0,2.710845184E1,2.765185547E1,3.313116455E1,5.096241102E1
1.962869958E0,2.577844238E1,2.817039490E1,3.360555267E1,5.086681050E1
1.972925958E0,2.470822144E1,2.870482635E1,3.375730133E1,5.073478743E1
1.982981958E0,2.361891174E1,2.894508743E1,3.423352814E1,5.067154554E1
1.993038958E0,2.255351257E1,2.931027412E1,3.468305206E1,5.070174749E1
2.003094958E0,2.142127228E1,2.964319611E1,3.519528961E1,5.075724965E1
2.013150958E0,2.044899750E1,2.969679642E1,3.574068451E1,5.076866893E1
2.023206958E0,1.913021088E1,2.985841370E1,3.662166595E1,5.097682075E1
2.033262958E0,1.796280670E1,2.996596527E1,3.721991730E1,5.104844506E1
2.043318958E0,1.697411346E1,2.965504837E1,3.795154572E1,5.106723259E1
2.053374958E0,1.579654694E1,2.925046349E1,3.859035492E1,5.093462479E1
2.063430958E0,1.470531464E1,2.875691223E1,3.926479340E1,5.084220963E1
2.073486958E0,1.374811554E1,2.793196487E1,4.021987152E1,5.086102051E1
2.083542958E0,1.284017181E1,2.702920723E1,4.137290192E1,5.106040608E1
2.093598958E0,1.203862762E1,2.585350800E1,4.218384552E1,5.091963525E1
2.103654958E0,1.120282745E1,2.457843399E1,4.315259552E1,5.090922569E1
2.113710958E0,1.039237213E1,2.329564667E1,4.415541840E1,5.099401461E1
2.123766958E0,9.719352722E0,2.178417778E1,4.504628754E1,5.097238703E1
2.133822958E0,9.719352722E0,2.178417778E1,4.504628754E1,5.097238703E1
2.143878958E0,8.963966370E0,2.009853935E1,4.607819366E1,5.106372400E1
2.153934958E0,8.063583374E0,1.856157684E1,4.692749786E1,5.110522055E1
2.163990958E0,7.336746216E0,1.655814552E1,4.781970978E1,5.113437857E1
2.174046625E0,6.586898804E0,1.453824043E1,4.848523712E1,5.104474399E1
2.184102625E0,5.716125488E0,1.227892113E1,4.917739105E1,5.100844818E1
2.194158625E0,4.966613770E0,9.654626846E0,4.977474213E1,5.094510797E1
2.204214625E0,3.996780396E0,6.789148331E0,5.039203644E1,5.100415792E1
2.214270625E0,3.045249939E0,3.794427872E0,5.091165161E1,5.114359686E1
2.224326625E0,2.003547668E0,5.182304382E-1,5.107395935E1,5.111586926E1
2.234382625E0,9.151992798E-1,-2.711429596E0,5.092868042E1,5.100901812E1
2.244438625E0,-3.810882568E-1,-5.992469788E0,5.064903259E1,5.100371972E1
2.254494625E0,-1.640289307E0,-9.265941620E0,4.993558502E1,5.081447505E1
2.264550625E0,-3.019020081E0,-1.252680969E1,4.929160309E1,5.094798895E1
2.274606625E0,-4.410079956E0,-1.558880997E1,4.827146912E1,5.091752677E1
2.284662625E0,-5.745964050E0,-1.847681046E1,4.711897278E1,5.093727734E1
2.294718625E0,-7.049827576E0,-2.118444061E1,4.573295593E1,5.089188394E1
2.304774625E0,-8.333786011E0,-2.397274780E1,4.423051453E1,5.099493153E1
2.314830625E0,-9.314445496E0,-2.668001175E1,4.232442474E1,5.089144183E1
2.324886625E0,-1.007069397E1,-2.938196564E1,4.027317047E1,5.085909006E1
2.334942625E0,-1.089961243E1,-3.201107788E1,3.806880951E1,5.091900348E1
2.344998625E0,-1.170325470E1,-3.449339294E1,3.547122955E1,5.084258504E1
2.355054625E0,-1.222769928E1,-3.678851318E1,3.302005768E1,5.092382096E1
2.365110625E0,-1.297953796E1,-3.886667633E1,3.037018585E1,5.100426574E1
2.375166625E0,-1.342900848E1,-4.074844360E1,2.775283051E1,5.109788182E1
2.385222625E0,-1.372779083E1,-4.230579376E1,2.519499969E1,5.111771157E1
2.395278625E0,-1.402421570E1,-4.367760468E1,2.241509247E1,5.105730258E1
2.405334625E0,-1.421266174E1,-4.493896484E1,1.972409821E1,5.109354524E1
2.415390625E0,-1.424536133E1,-4.614669800E1,1.685390472E1,5.115175618E1
2.425446625E0,-1.413669586E1,-4.704820251E1,1.396634674E1,5.107287314E1
2.435502625E0,-1.396980286E1,-4.789904022E1,1.107117462E1,5.110816328E1
2.445558625E0,-1.388579559E1,-4.838945770E1,8.276977539E0,5.101826431E1
2.455614625E0,-1.394134521E1,-4.893724823E1,5.273185730E0,5.115683589E1
2.465670625E0,-1.412996674E1,-4.909882355E1,2.191108704E0,5.113855093E1
2.475726625E0,-1.402886200E1,-4.918670654E1,-7.353363037E-1,5.115351199E1
2.485782625E0,-1.418485260E1,-4.889671326E1,-3.505920410E0,5.103322534E1
2.495838625E0,-1.425939178E1,-4.867683411E1,-6.636711121E0,5.115476876E1
2.505894625E0,-1.417626953E1,-4.825651550E1,-9.474723816E0,5.118035070E1
2.515950625E0,-1.404508972E1,-4.773096085E1,-1.229814148E1,5.125186292E1
2.526006625E0,-1.371358490E1,-4.685451889E1,-1.480784607E1,5.101647436E1
2.536062625E0,-1.344496155E1,-4.600941849E1,-1.752778625E1,5.103779846E1
2.546118625E0,-1.293263245E1,-4.503522873E1,-2.035527039E1,5.108582818E1
2.556174625E0,-1.279451752E1,-4.380779648E1,-2.303300476E1,5.112085699E1
2.566230625E0,-1.244348145E1,-4.243922806E1,-2.534906006E1,5.097551524E1
2.576286625E0,-1.219499207E1,-4.126940536E1,-2.763001251E1,5.113999650E1
2.586342625E0,-1.189688110E1,-3.979670334E1,-2.964068604E1,5.102826320E1
2.596398625E0,-1.158644867E1,-3.830166245E1,-3.140506744E1,5.086788181E1
2.606454625E0,-1.120957947E1,-3.694756317E1,-3.285075378E1,5.069466560E1
2.616510625E0,-1.083740997E1,-3.582253265E1,-3.469319916E1,5.103255205E1
2.626566625E0,-1.026190186E1,-3.457226562E1,-3.600110626E1,5.095711758E1
2.636622625E0,-9.647476196E0,-3.348531342E1,-3.723035431E1,5.099450258E1
2.646678625E0,-8.976669312E0,-3.228376007E1,-3.825664520E1,5.085658913E1
2.656734625E0,-8.284584045E0,-3.127774048E1,-3.944863129E1,5.102083783E1
2.666790625E0,-7.699195862E0,-3.024791718E1,-4.012041473E1,5.083170063E1
2.676846625E0,-7.169418335E0,-2.931998444E1,-4.086710358E1,5.080533635E1
2.686902625E0,-6.626945496E0,-2.843874741E1,-4.139873505E1,5.066097141E1
2.696958625E0,-6.182891846E0,-2.768192673E1,-4.213257599E1,5.079046346E1
2.707014625E0,-5.545669556E0,-2.676329041E1,-4.276880646E1,5.075627025E1
2.717070625E0,-5.064994812E0,-2.587533569E1,-4.340496063E1,5.078560600E1
2.727126625E0,-4.570022583E0,-2.481352234E1,-4.405551147E1,5.076892838E1
2.737182625E0,-4.070220947E0,-2.385482025E1,-4.467022705E1,5.080401886E1
2.747238625E0,-3.746406555E0,-2.267595673E1,-4.537145233E1,5.086062585E1
2.757294625E0,-3.168891907E0,-2.155491638E1,-4.601423645E1,5.091135681E1
2.767350625E0,-2.834289551E0,-2.031160736E1,-4.630798340E1,5.064606517E1
2.777406625E0,-2.598037720E0,-1.925094986E1,-4.684830475E1,5.071599874E1
2.787462625E0,-2.484443665E0,-1.799521637E1,-4.763237000E1,5.097884800E1
2.797518625E0,-2.359909058E0,-1.657047653E1,-4.824903870E1,5.106975228E1
2.807574625E0,-2.174339294E0,-1.543638229E1,-4.845487213E1,5.090072969E1
